% Measurement from esc,motor,propeller test
% file created 2020-10-08 14:18:08.800141
% 1: esc value (motor 1) 0=1ms, 1024 = 2ms
% 2: rps (motor 1) a rotations per second)
% 3: rps (motor 1) b rotations per second)
% 4: Motor voltage (volt)
% 5: total current (amps)
% 6: trust force (gram force)
% 7: CCV (rotation direction)
% 8: Temperature motor (deg C)
% 9: Temperature ESC (deg C)
100 12.89 12.90 15.2 0.2 15 0 22.7 24.7
150 20.20 20.21 15.2 0.3 39 0 22.6 25.1
200 27.41 27.38 15.2 0.5 74 0 22.2 25.0
250 35.16 35.08 15.1 0.9 127 0 22.9 24.3
300 42.45 42.31 15.2 1.4 186 0 23.0 26.4
350 48.89 48.84 15.3 2.2 251 0 22.9 26.7
400 56.31 56.03 14.9 3.4 337 0 23.9 27.0
450 62.30 62.34 15.2 4.7 418 0 24.5 26.7
500 68.30 67.86 15.1 5.8 492 0 24.0 28.0
550 73.08 73.10 15.3 7.9 578 0 25.1 29.5
600 78.01 78.00 14.9 9.6 668 0 26.7 30.5
650 81.87 82.64 14.6 12.0 738 0 31.2 30.8
700 87.35 87.16 15.2 13.2 832 0 32.4 31.6
750 90.36 91.14 15.0 15.4 920 0 33.7 30.5
800 94.70 94.53 14.6 18.6 1000 0 34.5 33.2
