% Measurement from esc,motor,propeller test
% file created 2020-10-08 14:37:09.693301
% 1: esc value (motor 1) 0=1ms, 1024 = 2ms
% 2: rps (motor 1) a rotations per second)
% 3: rps (motor 1) b rotations per second)
% 4: Motor voltage (volt)
% 5: total current (amps)
% 6: trust force (gram force)
% 7: CCV (rotation direction)
% 8: Temperature motor (deg C)
% 9: Temperature ESC (deg C)
100 9.35 9.35 11.2 0.1 5 0 25.9 26.5
150 14.97 14.97 11.2 0.2 18 0 25.5 26.3
200 20.18 20.17 11.2 0.3 37 0 24.9 26.3
250 25.58 25.55 11.2 0.5 62 0 24.4 26.4
300 31.14 31.17 11.2 0.9 95 0 25.8 26.5
350 37.12 37.13 11.2 1.3 139 0 24.3 26.7
400 42.22 42.16 11.1 1.8 183 0 24.6 26.4
450 47.49 47.45 11.0 2.6 234 0 24.0 26.7
500 52.66 52.82 11.2 3.5 292 0 24.8 27.2
550 57.41 57.67 11.3 4.7 352 0 24.7 26.3
600 62.25 62.06 11.0 5.9 405 0 25.0 27.8
650 65.89 65.86 10.8 7.0 459 0 25.9 28.3
700 69.59 69.76 11.2 8.6 525 0 27.1 28.5
750 73.62 73.85 11.6 10.5 590 0 27.2 28.9
800 77.57 77.21 11.1 11.0 658 0 29.6 28.8
850 80.92 80.50 11.0 13.5 718 0 30.8 28.5
900 84.73 84.59 10.8 15.2 782 0 31.9 26.5
950 87.35 87.76 10.7 17.7 843 0 32.5 28.4
