% Measurement from esc,motor,propeller test
% file created 2020-10-08 15:42:17.428743
% 1: esc value (motor 1) 0=1ms, 1024 = 2ms
% 2: rps (motor 1) a rotations per second)
% 3: rps (motor 1) b rotations per second)
% 4: Motor voltage (volt)
% 5: total current (amps)
% 6: trust force (gram force)
% 7: CCV (rotation direction)
% 8: Temperature motor (deg C)
% 9: Temperature ESC (deg C)
100 21.18 21.20 15.3 0.1 8 0 25.1 25.4
150 32.82 32.89 15.3 0.2 18 0 22.7 25.6
200 42.03 41.92 15.3 0.4 27 0 24.1 25.1
250 49.42 49.44 15.3 0.5 39 0 24.2 25.3
300 56.82 56.98 15.3 0.7 53 0 24.1 24.7
350 63.80 63.93 15.2 0.8 70 0 23.5 25.2
400 70.17 70.18 15.3 1.0 87 0 24.3 24.6
450 76.34 76.33 15.3 1.3 105 0 24.2 24.6
500 83.54 83.31 15.2 1.6 126 0 24.2 25.3
550 91.45 91.43 15.2 2.2 154 0 24.4 26.0
600 100.44 100.32 15.3 2.7 185 0 24.3 25.7
650 108.54 108.03 15.2 3.3 220 0 24.6 25.6
700 116.61 116.58 15.2 4.2 258 0 24.3 25.4
750 123.75 124.21 15.0 5.1 293 0 25.1 25.6
800 131.45 130.75 15.1 6.1 333 0 25.5 25.0
850 138.68 138.03 15.2 7.0 373 0 25.2 25.9
900 144.47 144.91 15.1 8.3 410 0 25.3 25.4
950 150.37 151.32 14.9 10.0 457 0 25.7 24.1
1000 156.57 158.77 15.0 10.5 500 0 26.5 25.1
