% Measurement from esc,motor,propeller test
% file created 2021-11-04 14:27:08.918989
% 1: esc value (motor 1) 0=1ms, 1024 = 2ms
% 2: rps (motor 1) a rotations per second)
% 3: rps (motor 1) b rotations per second)
% 4: Motor voltage (volt)
% 5: total current (amps)
% 6: trust force (gram force)
% 7: CCV (rotation direction)
% 8: Temperature motor (deg C)
% 9: Temperature ESC (deg C)
100 10.51 10.50 22.32 0.20 72 0 28.0 27.2
150 15.09 14.98 22.31 0.43 176 0 27.5 27.1
200 19.08 18.92 22.29 0.72 290 0 27.0 26.2
250 22.23 22.24 22.26 1.07 398 0 26.8 27.1
300 26.82 26.62 22.25 1.65 570 0 26.4 27.3
350 30.55 30.81 22.17 2.56 770 0 26.1 27.1
400 34.36 34.81 22.16 3.48 985 0 25.7 27.9
450 38.75 38.64 22.09 4.55 1180 0 24.8 28.8
500 42.01 42.33 21.94 6.05 1480 0 27.0 29.9
550 46.75 46.89 21.88 7.78 1770 0 25.5 30.7
600 50.02 50.04 21.77 9.76 2060 0 25.3 31.6
650 51.17 53.49 21.61 11.89 2390 0 25.2 32.6
700 57.82 56.70 21.53 14.11 2720 0 24.7 34.2
750 59.98 58.52 21.44 17.23 3016 0 25.0 34.6
800 63.70 61.47 21.20 19.72 3300 0 24.9 35.4
