% Measurement from esc,motor,propeller test
% file created 2021-11-04 14:10:19.676563
% 1: esc value (motor 1) 0=1ms, 1024 = 2ms
% 2: rps (motor 1) a rotations per second)
% 3: rps (motor 1) b rotations per second)
% 4: Motor voltage (volt)
% 5: total current (amps)
% 6: trust force (gram force)
% 7: CCV (rotation direction)
% 8: Temperature motor (deg C)
% 9: Temperature ESC (deg C)
100 9.49 9.50 22.31 0.17 87 0 29.7 27.4
150 13.49 13.53 22.31 0.41 187 0 30.9 27.3
200 17.40 17.46 22.28 0.76 323 0 29.6 27.5
250 21.27 21.35 22.25 1.28 477 0 29.3 27.6
300 25.22 25.42 22.22 1.93 690 0 29.2 27.5
350 29.79 30.04 22.17 3.00 940 0 28.0 28.3
400 33.74 34.19 22.07 4.09 1180 0 28.1 29.4
450 37.71 37.26 22.01 5.60 1470 0 28.7 30.5
500 41.08 41.05 21.91 7.00 1740 0 28.3 32.1
550 44.91 44.90 21.80 9.26 2075 0 28.2 33.4
600 47.58 48.32 21.65 11.93 2400 0 27.9 35.0
650 50.57 50.10 21.55 13.67 2770 0 30.0 36.0
700 54.20 52.83 21.41 16.70 3060 0 29.5 38.0
750 55.13 56.91 21.17 19.43 3400 0 29.6 38.1
800 56.49 59.37 21.07 22.93 3700 0 29.2 38.5
