% Measurement from esc,motor,propeller test
% file created 2021-11-04 13:13:32.188673
% 1: esc value (motor 1) 0=1ms, 1024 = 2ms
% 2: rps (motor 1) a rotations per second)
% 3: rps (motor 1) b rotations per second)
% 4: Motor voltage (volt)
% 5: total current (amps)
% 6: trust force (gram force)
% 7: CCV (rotation direction)
% 8: Temperature motor (deg C)
% 9: Temperature ESC (deg C)
50 0.00 0.00 22.33 0.00 0 0 27.1 26.2
100 11.75 11.75 22.32 0.23 6 0 26.1 26.1
150 16.94 16.95 22.31 0.46 130 0 27.1 25.7
200 20.69 20.77 22.30 0.71 207 0 27.0 25.8
250 24.74 24.41 22.28 1.05 290 0 27.0 25.9
300 28.25 28.48 22.24 1.47 380 0 27.0 26.6
350 32.19 31.60 22.22 1.96 490 0 27.1 26.0
400 35.78 35.64 22.19 2.71 620 0 26.8 26.8
450 39.75 39.78 22.14 3.60 755 0 27.0 26.9
500 44.06 43.51 22.05 4.75 950 0 26.9 27.4
550 49.14 48.41 22.01 6.06 1140 0 27.0 28.0
600 52.61 52.48 21.93 8.04 1350 0 26.9 28.9
650 57.02 57.00 21.81 9.45 1550 0 26.9 30.0
700 60.63 58.93 21.65 11.42 1800 0 27.1 30.6
750 62.20 63.34 21.50 14.08 2000 0 27.1 31.1
800 66.40 64.61 21.44 15.50 2250 0 28.0 31.4
850 67.68 68.91 21.49 19.07 2460 0 28.3 31.9
